# Pulseq sequence file
# Created by PyPulseq

[VERSION]
major 1
minor 3
revision 1post1

[DEFINITIONS]
Total duration 705.12128 
FOV 1 1 0.008 
Name gre 

# Format of blocks:
#  #  D RF  GX  GY  GZ ADC EXT
[BLOCKS]
  1  1  0   0   0   0  0  0
  2  0  1   0   0   0  0  0
  3  0  0   1   2   0  0  0
  4  0  0   3   0   0  1  0
  5  2  0   0   0   0  0  0
  6  1  0   0   0   0  0  0
  7  0  1   0   0   0  0  0
  8  0  0   1   4   0  0  0
  9  0  0   3   0   0  1  0
 10  2  0   0   0   0  0  0
 11  1  0   0   0   0  0  0
 12  0  1   0   0   0  0  0
 13  0  0   1   5   0  0  0
 14  0  0   3   0   0  1  0
 15  2  0   0   0   0  0  0
 16  1  0   0   0   0  0  0
 17  0  1   0   0   0  0  0
 18  0  0   1   6   0  0  0
 19  0  0   3   0   0  1  0
 20  2  0   0   0   0  0  0
 21  1  0   0   0   0  0  0
 22  0  1   0   0   0  0  0
 23  0  0   1   7   0  0  0
 24  0  0   3   0   0  1  0
 25  2  0   0   0   0  0  0
 26  1  0   0   0   0  0  0
 27  0  1   0   0   0  0  0
 28  0  0   1   8   0  0  0
 29  0  0   3   0   0  1  0
 30  2  0   0   0   0  0  0
 31  1  0   0   0   0  0  0
 32  0  1   0   0   0  0  0
 33  0  0   1   9   0  0  0
 34  0  0   3   0   0  1  0
 35  2  0   0   0   0  0  0
 36  1  0   0   0   0  0  0
 37  0  1   0   0   0  0  0
 38  0  0   1  10   0  0  0
 39  0  0   3   0   0  1  0
 40  2  0   0   0   0  0  0
 41  1  0   0   0   0  0  0
 42  0  1   0   0   0  0  0
 43  0  0   1  11   0  0  0
 44  0  0   3   0   0  1  0
 45  2  0   0   0   0  0  0
 46  1  0   0   0   0  0  0
 47  0  1   0   0   0  0  0
 48  0  0   1  12   0  0  0
 49  0  0   3   0   0  1  0
 50  2  0   0   0   0  0  0
 51  1  0   0   0   0  0  0
 52  0  1   0   0   0  0  0
 53  0  0   1  13   0  0  0
 54  0  0   3   0   0  1  0
 55  2  0   0   0   0  0  0
 56  1  0   0   0   0  0  0
 57  0  1   0   0   0  0  0
 58  0  0   1  14   0  0  0
 59  0  0   3   0   0  1  0
 60  2  0   0   0   0  0  0
 61  1  0   0   0   0  0  0
 62  0  1   0   0   0  0  0
 63  0  0   1  15   0  0  0
 64  0  0   3   0   0  1  0
 65  2  0   0   0   0  0  0
 66  1  0   0   0   0  0  0
 67  0  1   0   0   0  0  0
 68  0  0   1  16   0  0  0
 69  0  0   3   0   0  1  0
 70  2  0   0   0   0  0  0
 71  1  0   0   0   0  0  0
 72  0  1   0   0   0  0  0
 73  0  0   1  17   0  0  0
 74  0  0   3   0   0  1  0
 75  2  0   0   0   0  0  0
 76  1  0   0   0   0  0  0
 77  0  1   0   0   0  0  0
 78  0  0   1  18   0  0  0
 79  0  0   3   0   0  1  0
 80  2  0   0   0   0  0  0
 81  1  0   0   0   0  0  0
 82  0  1   0   0   0  0  0
 83  0  0   1  19   0  0  0
 84  0  0   3   0   0  1  0
 85  2  0   0   0   0  0  0
 86  1  0   0   0   0  0  0
 87  0  1   0   0   0  0  0
 88  0  0   1  20   0  0  0
 89  0  0   3   0   0  1  0
 90  2  0   0   0   0  0  0
 91  1  0   0   0   0  0  0
 92  0  1   0   0   0  0  0
 93  0  0   1  21   0  0  0
 94  0  0   3   0   0  1  0
 95  2  0   0   0   0  0  0
 96  1  0   0   0   0  0  0
 97  0  1   0   0   0  0  0
 98  0  0   1  22   0  0  0
 99  0  0   3   0   0  1  0
100  2  0   0   0   0  0  0
101  1  0   0   0   0  0  0
102  0  1   0   0   0  0  0
103  0  0   1  23   0  0  0
104  0  0   3   0   0  1  0
105  2  0   0   0   0  0  0
106  1  0   0   0   0  0  0
107  0  1   0   0   0  0  0
108  0  0   1  24   0  0  0
109  0  0   3   0   0  1  0
110  2  0   0   0   0  0  0
111  1  0   0   0   0  0  0
112  0  1   0   0   0  0  0
113  0  0   1  25   0  0  0
114  0  0   3   0   0  1  0
115  2  0   0   0   0  0  0
116  1  0   0   0   0  0  0
117  0  1   0   0   0  0  0
118  0  0   1  26   0  0  0
119  0  0   3   0   0  1  0
120  2  0   0   0   0  0  0
121  1  0   0   0   0  0  0
122  0  1   0   0   0  0  0
123  0  0   1  27   0  0  0
124  0  0   3   0   0  1  0
125  2  0   0   0   0  0  0
126  1  0   0   0   0  0  0
127  0  1   0   0   0  0  0
128  0  0   1  28   0  0  0
129  0  0   3   0   0  1  0
130  2  0   0   0   0  0  0
131  1  0   0   0   0  0  0
132  0  1   0   0   0  0  0
133  0  0   1  29   0  0  0
134  0  0   3   0   0  1  0
135  2  0   0   0   0  0  0
136  1  0   0   0   0  0  0
137  0  1   0   0   0  0  0
138  0  0   1  30   0  0  0
139  0  0   3   0   0  1  0
140  2  0   0   0   0  0  0
141  1  0   0   0   0  0  0
142  0  1   0   0   0  0  0
143  0  0   1  31   0  0  0
144  0  0   3   0   0  1  0
145  2  0   0   0   0  0  0
146  1  0   0   0   0  0  0
147  0  1   0   0   0  0  0
148  0  0   1  32   0  0  0
149  0  0   3   0   0  1  0
150  2  0   0   0   0  0  0
151  1  0   0   0   0  0  0
152  0  1   0   0   0  0  0
153  0  0   1  33   0  0  0
154  0  0   3   0   0  1  0
155  2  0   0   0   0  0  0
156  1  0   0   0   0  0  0
157  0  1   0   0   0  0  0
158  0  0   1  34   0  0  0
159  0  0   3   0   0  1  0
160  2  0   0   0   0  0  0
161  1  0   0   0   0  0  0
162  0  1   0   0   0  0  0
163  0  0   1  35   0  0  0
164  0  0   3   0   0  1  0
165  2  0   0   0   0  0  0
166  1  0   0   0   0  0  0
167  0  1   0   0   0  0  0
168  0  0   1  36   0  0  0
169  0  0   3   0   0  1  0
170  2  0   0   0   0  0  0
171  1  0   0   0   0  0  0
172  0  1   0   0   0  0  0
173  0  0   1  37   0  0  0
174  0  0   3   0   0  1  0
175  2  0   0   0   0  0  0
176  1  0   0   0   0  0  0
177  0  1   0   0   0  0  0
178  0  0   1  38   0  0  0
179  0  0   3   0   0  1  0
180  2  0   0   0   0  0  0
181  1  0   0   0   0  0  0
182  0  1   0   0   0  0  0
183  0  0   1  39   0  0  0
184  0  0   3   0   0  1  0
185  2  0   0   0   0  0  0
186  1  0   0   0   0  0  0
187  0  1   0   0   0  0  0
188  0  0   1  40   0  0  0
189  0  0   3   0   0  1  0
190  2  0   0   0   0  0  0
191  1  0   0   0   0  0  0
192  0  1   0   0   0  0  0
193  0  0   1  41   0  0  0
194  0  0   3   0   0  1  0
195  2  0   0   0   0  0  0
196  1  0   0   0   0  0  0
197  0  1   0   0   0  0  0
198  0  0   1  42   0  0  0
199  0  0   3   0   0  1  0
200  2  0   0   0   0  0  0
201  1  0   0   0   0  0  0
202  0  1   0   0   0  0  0
203  0  0   1  43   0  0  0
204  0  0   3   0   0  1  0
205  2  0   0   0   0  0  0
206  1  0   0   0   0  0  0
207  0  1   0   0   0  0  0
208  0  0   1  44   0  0  0
209  0  0   3   0   0  1  0
210  2  0   0   0   0  0  0
211  1  0   0   0   0  0  0
212  0  1   0   0   0  0  0
213  0  0   1  45   0  0  0
214  0  0   3   0   0  1  0
215  2  0   0   0   0  0  0
216  1  0   0   0   0  0  0
217  0  1   0   0   0  0  0
218  0  0   1  46   0  0  0
219  0  0   3   0   0  1  0
220  2  0   0   0   0  0  0
221  1  0   0   0   0  0  0
222  0  1   0   0   0  0  0
223  0  0   1  47   0  0  0
224  0  0   3   0   0  1  0
225  2  0   0   0   0  0  0
226  1  0   0   0   0  0  0
227  0  1   0   0   0  0  0
228  0  0   1  48   0  0  0
229  0  0   3   0   0  1  0
230  2  0   0   0   0  0  0
231  1  0   0   0   0  0  0
232  0  1   0   0   0  0  0
233  0  0   1  49   0  0  0
234  0  0   3   0   0  1  0
235  2  0   0   0   0  0  0
236  1  0   0   0   0  0  0
237  0  1   0   0   0  0  0
238  0  0   1  50   0  0  0
239  0  0   3   0   0  1  0
240  2  0   0   0   0  0  0
241  1  0   0   0   0  0  0
242  0  1   0   0   0  0  0
243  0  0   1  51   0  0  0
244  0  0   3   0   0  1  0
245  2  0   0   0   0  0  0
246  1  0   0   0   0  0  0
247  0  1   0   0   0  0  0
248  0  0   1  52   0  0  0
249  0  0   3   0   0  1  0
250  2  0   0   0   0  0  0
251  1  0   0   0   0  0  0
252  0  1   0   0   0  0  0
253  0  0   1  53   0  0  0
254  0  0   3   0   0  1  0
255  2  0   0   0   0  0  0
256  1  0   0   0   0  0  0
257  0  1   0   0   0  0  0
258  0  0   1  54   0  0  0
259  0  0   3   0   0  1  0
260  2  0   0   0   0  0  0
261  1  0   0   0   0  0  0
262  0  1   0   0   0  0  0
263  0  0   1  55   0  0  0
264  0  0   3   0   0  1  0
265  2  0   0   0   0  0  0
266  1  0   0   0   0  0  0
267  0  1   0   0   0  0  0
268  0  0   1  56   0  0  0
269  0  0   3   0   0  1  0
270  2  0   0   0   0  0  0
271  1  0   0   0   0  0  0
272  0  1   0   0   0  0  0
273  0  0   1  57   0  0  0
274  0  0   3   0   0  1  0
275  2  0   0   0   0  0  0
276  1  0   0   0   0  0  0
277  0  1   0   0   0  0  0
278  0  0   1  58   0  0  0
279  0  0   3   0   0  1  0
280  2  0   0   0   0  0  0
281  1  0   0   0   0  0  0
282  0  1   0   0   0  0  0
283  0  0   1  59   0  0  0
284  0  0   3   0   0  1  0
285  2  0   0   0   0  0  0
286  1  0   0   0   0  0  0
287  0  1   0   0   0  0  0
288  0  0   1  60   0  0  0
289  0  0   3   0   0  1  0
290  2  0   0   0   0  0  0
291  1  0   0   0   0  0  0
292  0  1   0   0   0  0  0
293  0  0   1  61   0  0  0
294  0  0   3   0   0  1  0
295  2  0   0   0   0  0  0
296  1  0   0   0   0  0  0
297  0  1   0   0   0  0  0
298  0  0   1  62   0  0  0
299  0  0   3   0   0  1  0
300  2  0   0   0   0  0  0
301  1  0   0   0   0  0  0
302  0  1   0   0   0  0  0
303  0  0   1  63   0  0  0
304  0  0   3   0   0  1  0
305  2  0   0   0   0  0  0
306  1  0   0   0   0  0  0
307  0  1   0   0   0  0  0
308  0  0   1  64   0  0  0
309  0  0   3   0   0  1  0
310  2  0   0   0   0  0  0
311  1  0   0   0   0  0  0
312  0  1   0   0   0  0  0
313  0  0   1  65   0  0  0
314  0  0   3   0   0  1  0
315  2  0   0   0   0  0  0
316  1  0   0   0   0  0  0
317  0  1   0   0   0  0  0
318  0  0   1  66   0  0  0
319  0  0   3   0   0  1  0
320  2  0   0   0   0  0  0

# Format of RF events:
# id amplitude mag_id phase_id delay freq phase
# ..        Hz   ....     ....    us   Hz   rad
[RF]
1      987.456 1 2 500 0 0

# Format of trapezoid gradients:
# id amplitude rise flat fall delay
# ..      Hz/m   us   us   us    us
[TRAP]
 1     -7466.67 500 4000 500   0
 2     -7111.11 500 4000 500   0
 3         6400 500 10000 500   0
 4     -6888.89 500 4000 500   0
 5     -6666.67 500 4000 500   0
 6     -6444.44 500 4000 500   0
 7     -6222.22 500 4000 500   0
 8        -6000 500 4000 500   0
 9     -5777.78 500 4000 500   0
10     -5555.56 500 4000 500   0
11     -5333.33 500 4000 500   0
12     -5111.11 500 4000 500   0
13     -4888.89 500 4000 500   0
14     -4666.67 500 4000 500   0
15     -4444.44 500 4000 500   0
16     -4222.22 500 4000 500   0
17        -4000 500 4000 500   0
18     -3777.78 500 4000 500   0
19     -3555.56 500 4000 500   0
20     -3333.33 500 4000 500   0
21     -3111.11 500 4000 500   0
22     -2888.89 500 4000 500   0
23     -2666.67 500 4000 500   0
24     -2444.44 500 4000 500   0
25     -2222.22 500 4000 500   0
26        -2000 500 4000 500   0
27     -1777.78 500 4000 500   0
28     -1555.56 500 4000 500   0
29     -1333.33 500 4000 500   0
30     -1111.11 500 4000 500   0
31     -888.889 500 4000 500   0
32     -666.667 500 4000 500   0
33     -444.444 500 4000 500   0
34     -222.222 500 4000 500   0
35            0 500 4000 500   0
36      222.222 500 4000 500   0
37      444.444 500 4000 500   0
38      666.667 500 4000 500   0
39      888.889 500 4000 500   0
40      1111.11 500 4000 500   0
41      1333.33 500 4000 500   0
42      1555.56 500 4000 500   0
43      1777.78 500 4000 500   0
44         2000 500 4000 500   0
45      2222.22 500 4000 500   0
46      2444.44 500 4000 500   0
47      2666.67 500 4000 500   0
48      2888.89 500 4000 500   0
49      3111.11 500 4000 500   0
50      3333.33 500 4000 500   0
51      3555.56 500 4000 500   0
52      3777.78 500 4000 500   0
53         4000 500 4000 500   0
54      4222.22 500 4000 500   0
55      4444.44 500 4000 500   0
56      4666.67 500 4000 500   0
57      4888.89 500 4000 500   0
58      5111.11 500 4000 500   0
59      5333.33 500 4000 500   0
60      5555.56 500 4000 500   0
61      5777.78 500 4000 500   0
62         6000 500 4000 500   0
63      6222.22 500 4000 500   0
64      6444.44 500 4000 500   0
65      6666.67 500 4000 500   0
66      6888.89 500 4000 500   0

# Format of ADC events:
# id num dwell delay freq phase
# ..  ..    ns    us   Hz   rad
[ADC]
1 64 156250 500 0 0

# Format of delays:
# id delay (us)
[DELAYS]
1 1000000
2 10000000

# Sequence Shapes
[SHAPES]

shape_id 1
num_samples 1020
0
2e-07
3e-07
8e-07
1.2e-06
1.8e-06
2.6e-06
3.4e-06
4.3e-06
5.5e-06
6.7e-06
8e-06
9.5e-06
1.11e-05
1.28e-05
1.47e-05
1.66e-05
1.88e-05
2.09e-05
2.34e-05
2.57e-05
2.84e-05
3.11e-05
3.4e-05
3.69e-05
4e-05
4.32e-05
4.65e-05
5e-05
5.36e-05
5.73e-05
6.1e-05
6.5e-05
6.9e-05
7.31e-05
7.74e-05
8.18e-05
8.62e-05
9.08e-05
9.56e-05
0.0001002
0.0001052
0.0001102
0.0001153
0.0001204
0.0001257
0.0001311
0.0001366
0.0001421
0.0001477
0.0001534
0.0001592
0.0001651
0.000171
0.000177
0.0001831
0.0001893
0.0001955
0.0002017
0.000208
0.0002145
0.0002208
0.0002274
0.0002338
0.0002404
0.000247
0.0002537
0.0002603
0.000267
0.0002737
0.0002804
0.0002872
0.0002939
0.0003007
0.0003074
0.0003143
0.000321
0.0003277
0.0003345
0.0003412
0.0003479
0.0003547
0.0003612
0.0003679
0.0003745
0.000381
0.0003875
0.0003939
0.0004003
0.0004067
0.0004129
0.0004191
0.0004253
0.0004312
0.0004373
0.0004431
0.0004489
0.0004546
0.0004601
0.0004656
0.000471
0.0004763
0.0004813
0.0004864
0.0004912
0.000496
0.0005005
0.000505
0.0005093
0.0005135
0.0005174
0.0005213
0.0005249
0.0005283
0.0005317
0.0005348
0.0005377
0.0005405
0.0005429
0.0005453
0.0005475
0.0005493
0.000551
0.0005525
0.0005537
0.0005548
0.0005555
0.000556
0.0005564
0.0005564
0
0.0005561
0.0005557
0.0005549
0.000554
0.0005526
0.0005511
0.0005493
0.0005472
0.0005447
0.000542
0.0005391
0.0005357
0.0005321
0.0005282
0.000524
0.0005194
0.0005146
0.0005093
0.0005039
0.000498
0.0004918
0.0004852
0.0004784
0.0004712
0.0004637
0.0004557
0.0004474
0.0004388
0.0004298
0.0004205
0.0004107
0.0004007
0.0003902
0.0003793
0.0003682
0.0003565
0.0003446
0.0003322
0.0003195
0.0003063
0.0002929
0.0002789
0.0002646
0.0002499
0.0002348
0.0002194
0.0002034
0.0001872
0.0001704
0.0001534
0.0001358
0.000118
9.97e-05
8.09e-05
6.18e-05
4.23e-05
2.24e-05
2.1e-06
-1.87e-05
-3.99e-05
-6.14e-05
-8.33e-05
-0.0001057
-0.0001285
-0.0001517
-0.0001753
-0.0001992
-0.0002236
-0.0002484
-0.0002735
-0.0002992
-0.0003251
-0.0003515
-0.0003782
-0.0004054
-0.000433
-0.0004609
-0.0004892
-0.0005179
-0.0005469
-0.0005765
-0.0006062
-0.0006365
-0.000667
-0.000698
-0.0007293
-0.0007609
-0.000793
-0.0008253
-0.000858
-0.0008911
-0.0009246
-0.0009582
-0.0009924
-0.0010267
-0.0010615
-0.0010966
-0.0011319
-0.0011676
-0.0012036
-0.0012399
-0.0012765
-0.0013133
-0.0013505
-0.001388
-0.0014257
-0.0014637
-0.0015019
-0.0015405
-0.0015792
-0.0016183
-0.0016575
-0.001697
-0.0017367
-0.0017767
-0.0018168
-0.0018572
-0.0018977
-0.0019385
-0.0019795
0.0020206
0.0020619
0.0021034
0.002145
0.0021868
0.0022287
0.0022708
0.002313
0.0023553
0.0023977
0.0024403
0.002483
0.0025256
0.0025685
0.0026113
0.0026544
0.0026973
0.0027404
0.0027834
0.0028267
0.0028697
0.002913
0.0029561
0.0029994
0.0030425
0.0030856
0.0031288
0.0031718
0.0032149
0.0032578
0.0033008
0.0033437
0.0033864
0.003429
0.0034717
0.0035141
0.0035564
0.0035987
0.0036407
0.0036827
0.0037244
0.003766
0.0038075
0.0038487
0.0038898
0.0039306
0.0039712
0.0040117
0.0040518
0.0040918
0.0041315
0.0041709
0.0042101
0.0042489
0.0042875
0.0043259
0.0043638
0.0044015
0.0044388
0.0044759
0.0045125
0.0045488
0.0045848
0.0046203
0.0046556
0.0046903
0.0047248
0.0047588
0.0047923
0.0048255
0.0048582
0.0048905
0.0049223
0.0049537
0.0049846
0.005015
0.0050449
0.0050744
0.0051032
0.0051317
0.0051596
0.0051869
0.0052138
0.0052401
0.0052657
0.005291
0.0053156
0.0053395
0.005363
0.0053859
0.0054081
0.0054298
0.0054507
0.0054712
0.005491
0.0055101
0.0055287
0.0055464
0.0055637
0.0055802
0.0055961
0.0056113
0.0056259
0.0056396
0.0056528
0.0056652
0.005677
0.005688
0.0056984
0.0057079
0.0057168
0.005725
0.0057324
0.005739
0.005745
0.0057501
0.0057546
0.0057583
0.0057611
0.0057633
0.0057647
0.0057653
0.0057651
0.0057642
0.0057625
0.0057599
0.0057566
0.0057526
0.0057476
0.005742
0.0057355
0.0057283
0.0057201
0.0057113
0.0057016
0.0056911
0.0056798
0.0056677
0.0056548
0.005641
0.0056266
0.0056111
0.005595
0.0055781
0.0055603
0.0055416
0.0055223
0.0055021
0.005481
0.0054592
0.0054366
0.0054131
0.0053889
0.0053638
0.0053379
0.0053113
0.0052839
0.0052556
0.0052266
0.0051967
0.0051661
0.0051347
0.0051026
0.0050695
0.0050358
0.0050013
0.0049661
0.00493
0.0048931
0.0048557
0.0048173
0.0047782
0.0047385
0.0046979
0.0046566
0.0046147
0.0045719
0.0045285
0.0044844
0.0044395
0.0043939
0.0043477
0.0043008
0.0042532
0.0042049
0.0041559
0.0041063
0.0040561
0.0040051
0.0039536
0.0039014
0.0038487
0.0037952
0.0037411
0.0036866
0.0036313
0.0035755
0.0035191
0.0034622
0.0034046
0.0033466
0.003288
0.0032289
0.0031692
0.0031091
0.0030483
0.0029872
0.0029255
0.0028634
0.0028008
0.0027378
0.0026742
0.0026103
0.0025459
0.0024812
0.0024159
0.0023504
0.0022844
0.002218
0.0021513
0.0020843
0.0020168
0.0019491
0.0018811
0.0018127
0.001744
0.001675
0.0016059
0.0015363
0.0014665
0.0013966
0.0013264
0.0012559
0.0011852
0.0011144
0.0010434
0.0009722
0.0009008
0.0008293
0.0007576
0.0006859
0.000614
0.000542
0.0004699
0.0003977
0.0003255
0.0002532
0.000181
0.0001085
3.62e-05
-3.62e-05
-0.0001085
-0.000181
-0.0002532
-0.0003255
-0.0003977
-0.0004699
-0.000542
-0.000614
-0.0006859
-0.0007576
-0.0008293
-0.0009008
-0.0009722
-0.0010434
-0.0011144
-0.0011852
-0.0012559
-0.0013264
-0.0013966
-0.0014665
-0.0015363
-0.0016059
-0.001675
-0.001744
-0.0018127
-0.0018811
-0.0019491
-0.0020168
-0.0020843
-0.0021513
-0.002218
-0.0022844
-0.0023504
-0.0024159
-0.0024812
-0.0025459
-0.0026103
-0.0026742
-0.0027378
-0.0028008
-0.0028634
-0.0029255
-0.0029872
-0.0030483
-0.0031091
-0.0031692
-0.0032289
-0.003288
-0.0033466
-0.0034046
-0.0034622
-0.0035191
-0.0035755
-0.0036313
-0.0036866
-0.0037411
-0.0037952
-0.0038487
-0.0039014
-0.0039536
-0.0040051
-0.0040561
-0.0041063
-0.0041559
-0.0042049
-0.0042532
-0.0043008
-0.0043477
-0.0043939
-0.0044395
-0.0044844
-0.0045285
-0.0045719
-0.0046147
-0.0046566
-0.0046979
-0.0047385
-0.0047782
-0.0048173
-0.0048557
-0.0048931
-0.00493
-0.0049661
-0.0050013
-0.0050358
-0.0050695
-0.0051026
-0.0051347
-0.0051661
-0.0051967
-0.0052266
-0.0052556
-0.0052839
-0.0053113
-0.0053379
-0.0053638
-0.0053889
-0.0054131
-0.0054366
-0.0054592
-0.005481
-0.0055021
-0.0055223
-0.0055416
-0.0055603
-0.0055781
-0.005595
-0.0056111
-0.0056266
-0.005641
-0.0056548
-0.0056677
-0.0056798
-0.0056911
-0.0057016
-0.0057113
-0.0057201
-0.0057283
-0.0057355
-0.005742
-0.0057476
-0.0057526
-0.0057566
-0.0057599
-0.0057625
-0.0057642
-0.0057651
-0.0057653
-0.0057647
-0.0057633
-0.0057611
-0.0057583
-0.0057546
-0.0057501
-0.005745
-0.005739
-0.0057324
-0.005725
-0.0057168
-0.0057079
-0.0056984
-0.005688
-0.005677
-0.0056652
-0.0056528
-0.0056396
-0.0056259
-0.0056113
-0.0055961
-0.0055802
-0.0055637
-0.0055464
-0.0055287
-0.0055101
-0.005491
-0.0054712
-0.0054507
-0.0054298
-0.0054081
-0.0053859
-0.005363
-0.0053395
-0.0053156
-0.005291
-0.0052657
-0.0052401
-0.0052138
-0.0051869
-0.0051596
-0.0051317
-0.0051032
-0.0050744
-0.0050449
-0.005015
-0.0049846
-0.0049537
-0.0049223
-0.0048905
-0.0048582
-0.0048255
-0.0047923
-0.0047588
-0.0047248
-0.0046903
-0.0046556
-0.0046203
-0.0045848
-0.0045488
-0.0045125
-0.0044759
-0.0044388
-0.0044015
-0.0043638
-0.0043259
-0.0042875
-0.0042489
-0.0042101
-0.0041709
-0.0041315
-0.0040918
-0.0040518
-0.0040117
-0.0039712
-0.0039306
-0.0038898
-0.0038487
-0.0038075
-0.003766
-0.0037244
-0.0036827
-0.0036407
-0.0035987
-0.0035564
-0.0035141
-0.0034717
-0.003429
-0.0033864
-0.0033437
-0.0033008
-0.0032578
-0.0032149
-0.0031718
-0.0031288
-0.0030856
-0.0030425
-0.0029994
-0.0029561
-0.002913
-0.0028697
-0.0028267
-0.0027834
-0.0027404
-0.0026973
-0.0026544
-0.0026113
-0.0025685
-0.0025256
-0.002483
-0.0024403
-0.0023977
-0.0023553
-0.002313
-0.0022708
-0.0022287
-0.0021868
-0.002145
-0.0021034
-0.0020619
-0.0020206
0.0019795
0.0019385
0.0018977
0.0018572
0.0018168
0.0017767
0.0017367
0.001697
0.0016575
0.0016183
0.0015792
0.0015405
0.0015019
0.0014637
0.0014257
0.001388
0.0013505
0.0013133
0.0012765
0.0012399
0.0012036
0.0011676
0.0011319
0.0010966
0.0010615
0.0010267
0.0009924
0.0009582
0.0009246
0.0008911
0.000858
0.0008253
0.000793
0.0007609
0.0007293
0.000698
0.000667
0.0006365
0.0006062
0.0005765
0.0005469
0.0005179
0.0004892
0.0004609
0.000433
0.0004054
0.0003782
0.0003515
0.0003251
0.0002992
0.0002735
0.0002484
0.0002236
0.0001992
0.0001753
0.0001517
0.0001285
0.0001057
8.33e-05
6.14e-05
3.99e-05
1.87e-05
-2.1e-06
-2.24e-05
-4.23e-05
-6.18e-05
-8.09e-05
-9.97e-05
-0.000118
-0.0001358
-0.0001534
-0.0001704
-0.0001872
-0.0002034
-0.0002194
-0.0002348
-0.0002499
-0.0002646
-0.0002789
-0.0002929
-0.0003063
-0.0003195
-0.0003322
-0.0003446
-0.0003565
-0.0003682
-0.0003793
-0.0003902
-0.0004007
-0.0004107
-0.0004205
-0.0004298
-0.0004388
-0.0004474
-0.0004557
-0.0004637
-0.0004712
-0.0004784
-0.0004852
-0.0004918
-0.000498
-0.0005039
-0.0005093
-0.0005146
-0.0005194
-0.000524
-0.0005282
-0.0005321
-0.0005357
-0.0005391
-0.000542
-0.0005447
-0.0005472
-0.0005493
-0.0005511
-0.0005526
-0.000554
-0.0005549
-0.0005557
-0.0005561
-0.0005564
-0.0005564
0
-0.000556
-0.0005555
-0.0005548
-0.0005537
-0.0005525
-0.000551
-0.0005493
-0.0005475
-0.0005453
-0.0005429
-0.0005405
-0.0005377
-0.0005348
-0.0005317
-0.0005283
-0.0005249
-0.0005213
-0.0005174
-0.0005135
-0.0005093
-0.000505
-0.0005005
-0.000496
-0.0004912
-0.0004864
-0.0004813
-0.0004763
-0.000471
-0.0004656
-0.0004601
-0.0004546
-0.0004489
-0.0004431
-0.0004373
-0.0004312
-0.0004253
-0.0004191
-0.0004129
-0.0004067
-0.0004003
-0.0003939
-0.0003875
-0.000381
-0.0003745
-0.0003679
-0.0003612
-0.0003547
-0.0003479
-0.0003412
-0.0003345
-0.0003277
-0.000321
-0.0003143
-0.0003074
-0.0003007
-0.0002939
-0.0002872
-0.0002804
-0.0002737
-0.000267
-0.0002603
-0.0002537
-0.000247
-0.0002404
-0.0002338
-0.0002274
-0.0002208
-0.0002145
-0.000208
-0.0002017
-0.0001955
-0.0001893
-0.0001831
-0.000177
-0.000171
-0.0001651
-0.0001592
-0.0001534
-0.0001477
-0.0001421
-0.0001366
-0.0001311
-0.0001257
-0.0001204
-0.0001153
-0.0001102
-0.0001052
-0.0001002
-9.56e-05
-9.08e-05
-8.62e-05
-8.18e-05
-7.74e-05
-7.31e-05
-6.9e-05
-6.5e-05
-6.1e-05
-5.73e-05
-5.36e-05
-5e-05
-4.65e-05
-4.32e-05
-4e-05
-3.69e-05
-3.4e-05
-3.11e-05
-2.84e-05
-2.57e-05
-2.34e-05
-2.09e-05
-1.88e-05
-1.66e-05
-1.47e-05
-1.28e-05
-1.11e-05
-9.5e-06
-8e-06
-6.7e-06
-5.5e-06
-4.3e-06
-3.4e-06
-2.6e-06
-1.8e-06
-1.2e-06
-8e-07
-3e-07
-2e-07
0
0
19

shape_id 2
num_samples 1020
0.5
0
0
246
-0.5
0
0
498
0.5
0
0
246
-0.5
0
0
18

